pub_time(ms) sub_time(ms) delay(ms) utmX(m) utmY(m) heading(rad) velocity(m/s)
1712890218976 1712890219016 40 328966.080000 3463474.570000 -3.107559 0.000000
1712890219026 1712890219046 20 328966.070000 3463474.570000 -3.107559 0.000000
1712890219077 1712890219100 23 328966.060000 3463474.570000 -3.107559 0.040000
1712890219127 1712890219150 23 328966.050000 3463474.570000 -3.105595 0.040000
1712890219177 1712890219200 23 328966.030000 3463474.570000 -3.105595 0.180000
1712890219227 1712890219250 23 328966.010000 3463474.570000 -3.105595 0.220000
1712890219277 1712890219300 23 328965.990000 3463474.570000 -3.105595 0.240000
1712890219327 1712890219350 23 328965.970000 3463474.570000 -3.108868 0.260000
1712890219377 1712890219400 23 328965.950000 3463474.570000 -3.108868 0.300000
1712890219428 1712890219451 23 328965.930000 3463474.570000 -3.108868 0.320000
1712890219478 1712890219501 23 328965.920000 3463474.570000 -3.108868 0.380000
1712890219528 1712890219552 24 328965.900000 3463474.570000 -3.108868 0.420000
1712890219578 1712890219601 23 328965.860000 3463474.570000 -3.113013 0.440000
1712890219628 1712890219653 25 328965.830000 3463474.570000 -3.113013 0.500000
1712890219678 1712890219703 25 328965.810000 3463474.570000 -3.113013 0.540000
1712890219728 1712890219753 25 328965.760000 3463474.580000 -3.112577 0.600000
1712890219779 1712890219802 23 328965.720000 3463474.580000 -3.112577 0.680000
1712890219829 1712890219852 23 328965.670000 3463474.580000 -3.112577 0.740000
1712890219879 1712890219902 23 328965.650000 3463474.580000 -3.112577 0.780000
1712890219929 1712890219953 24 328965.570000 3463474.600000 -3.116285 0.840000
1712890219979 1712890220003 24 328965.520000 3463474.600000 -3.116285 0.880000
1712890220029 1712890220054 25 328965.480000 3463474.610000 -3.116285 0.960000
1712890220079 1712890220111 32 328965.410000 3463474.610000 -3.116285 1.040000
1712890220130 1712890220149 19 328965.380000 3463474.620000 -3.129812 1.100000
1712890220180 1712890220204 24 328965.330000 3463474.620000 -3.129812 1.180000
1712890220230 1712890220250 20 328965.250000 3463474.630000 -3.129812 1.200000
1712890220280 1712890220300 20 328965.190000 3463474.650000 -3.129812 1.260000
1712890220330 1712890220354 24 328965.100000 3463474.660000 -3.138975 1.320000
1712890220380 1712890220398 18 328965.030000 3463474.670000 -3.138975 1.380000
1712890220430 1712890220447 17 328964.990000 3463474.670000 -3.138975 1.440000
1712890220481 1712890220500 19 328964.860000 3463474.700000 -3.138975 1.480000
1712890220531 1712890220550 19 328964.790000 3463474.710000 3.129375 1.520000
1712890220581 1712890220607 26 328964.700000 3463474.720000 3.129375 1.580000
1712890220631 1712890220651 20 328964.620000 3463474.730000 3.129375 1.620000
1712890220681 1712890220700 19 328964.520000 3463474.750000 3.116940 1.660000
1712890220731 1712890220747 16 328964.460000 3463474.760000 3.116940 1.700000
1712890220782 1712890220802 20 328964.460000 3463474.760000 3.116940 1.700000
1712890220832 1712890220856 24 328964.380000 3463474.770000 3.116940 1.720000
1712890220882 1712890220902 20 328964.320000 3463474.770000 3.116940 1.780000
1712890220932 1712890220952 20 328964.180000 3463474.800000 3.116940 1.800000
1712890220982 1712890221002 20 328964.080000 3463474.810000 3.102759 1.880000
1712890221032 1712890221049 17 328963.980000 3463474.830000 3.102759 1.900000
1712890221083 1712890221102 19 328963.880000 3463474.850000 3.102759 1.960000
1712890221133 1712890221151 18 328963.810000 3463474.860000 3.102759 1.980000
1712890221183 1712890221199 16 328963.660000 3463474.880000 3.089451 2.040000
1712890221233 1712890221264 31 328963.590000 3463474.890000 3.089451 2.080000
1712890221283 1712890221306 23 328963.480000 3463474.910000 3.089451 2.120000
1712890221333 1712890221356 23 328963.380000 3463474.920000 3.089451 2.140000
1712890221383 1712890221404 21 328963.240000 3463474.940000 3.073307 2.200000
1712890221434 1712890221456 22 328963.130000 3463474.970000 3.073307 2.240000
1712890221484 1712890221501 17 328963.060000 3463474.970000 3.073307 2.300000
1712890221534 1712890221550 16 328962.940000 3463474.990000 3.073307 2.320000
1712890221584 1712890221601 17 328962.770000 3463475.020000 3.064798 2.380000
1712890221634 1712890221653 19 328962.660000 3463475.030000 3.064798 2.440000
1712890221684 1712890221702 18 328962.540000 3463475.060000 3.064798 2.460000
1712890221735 1712890221758 23 328962.430000 3463475.070000 3.064798 2.520000
1712890221785 1712890221802 17 328962.220000 3463475.090000 3.054981 2.540000
1712890221835 1712890221856 21 328962.090000 3463475.120000 3.054981 2.600000
1712890221885 1712890221904 19 328962.010000 3463475.130000 3.054981 2.640000
1712890221935 1712890221959 24 328961.880000 3463475.140000 3.054981 2.700000
1712890221985 1712890222004 19 328961.770000 3463475.160000 3.047999 2.740000
1712890222035 1712890222056 21 328961.630000 3463475.180000 3.047999 2.800000
1712890222086 1712890222103 17 328961.430000 3463475.210000 3.047999 2.820000
1712890222136 1712890222156 20 328961.290000 3463475.220000 3.047999 2.860000
1712890222186 1712890222217 31 328961.110000 3463475.250000 3.045818 2.900000
1712890222236 1712890222254 18 328960.970000 3463475.270000 3.045818 2.940000
1712890222286 1712890222313 27 328960.820000 3463475.280000 3.045818 2.980000
1712890222336 1712890222357 21 328960.630000 3463475.300000 3.043200 3.020000
1712890222386 1712890222407 21 328960.470000 3463475.320000 3.043200 3.060000
1712890222437 1712890222460 23 328960.350000 3463475.340000 3.043200 3.100000
1712890222487 1712890222511 24 328960.220000 3463475.350000 3.043200 3.140000
1712890222537 1712890222561 24 328960.060000 3463475.360000 3.046472 3.200000
1712890222587 1712890222611 24 328959.860000 3463475.390000 3.046472 3.240000
1712890222637 1712890222660 23 328959.700000 3463475.400000 3.046472 3.280000
1712890222687 1712890222707 20 328959.570000 3463475.410000 3.046472 3.320000
1712890222738 1712890222761 23 328959.360000 3463475.430000 3.051054 3.340000
1712890222788 1712890222811 23 328959.160000 3463475.440000 3.051054 3.380000
1712890222838 1712890222860 22 328958.980000 3463475.470000 3.051054 3.420000
1712890222888 1712890222912 24 328958.850000 3463475.470000 3.051054 3.460000
1712890222938 1712890222961 23 328958.740000 3463475.480000 3.051054 3.500000
1712890222988 1712890223012 24 328958.640000 3463475.500000 3.055417 3.560000
1712890223038 1712890223063 25 328958.310000 3463475.520000 3.055417 3.600000
1712890223088 1712890223113 25 328958.240000 3463475.530000 3.055417 3.620000
1712890223139 1712890223162 23 328958.020000 3463475.540000 3.055417 3.680000
1712890223189 1712890223213 24 328957.720000 3463475.570000 3.057817 3.720000
1712890223239 1712890223263 24 328957.530000 3463475.580000 3.057817 3.760000
1712890223289 1712890223313 24 328957.370000 3463475.590000 3.057817 3.800000
1712890223339 1712890223363 24 328957.110000 3463475.610000 3.062617 3.840000
1712890223389 1712890223421 32 328956.910000 3463475.620000 3.062617 3.860000
1712890223439 1712890223467 28 328956.710000 3463475.640000 3.062617 3.920000
1712890223490 1712890223514 24 328956.560000 3463475.650000 3.062617 3.940000
1712890223540 1712890223561 21 328956.430000 3463475.650000 3.062617 3.980000
1712890223590 1712890223621 31 328956.180000 3463475.670000 3.072652 4.040000
1712890223640 1712890223659 19 328955.980000 3463475.680000 3.072652 4.100000
1712890223690 1712890223715 25 328955.810000 3463475.700000 3.072652 4.120000
1712890223740 1712890223764 24 328955.530000 3463475.710000 3.076579 4.140000
1712890223791 1712890223814 23 328955.270000 3463475.720000 3.076579 4.200000
1712890223841 1712890223863 22 328955.220000 3463475.730000 3.076579 4.200000
1712890223891 1712890223914 23 328954.840000 3463475.750000 3.076579 4.260000
1712890223941 1712890223964 23 328954.580000 3463475.750000 3.086397 4.280000
1712890223991 1712890224014 23 328954.360000 3463475.770000 3.086397 4.340000
1712890224041 1712890224064 23 328954.140000 3463475.770000 3.086397 4.380000
1712890224091 1712890224109 18 328954.050000 3463475.770000 3.086397 4.440000
1712890224142 1712890224165 23 328953.780000 3463475.790000 3.098832 4.500000
1712890224192 1712890224215 23 328953.510000 3463475.790000 3.098832 4.540000
1712890224242 1712890224266 24 328953.280000 3463475.790000 3.098832 4.540000
1712890224292 1712890224315 23 328953.050000 3463475.800000 3.098832 4.560000
1712890224342 1712890224367 25 328952.820000 3463475.810000 3.111486 4.580000
1712890224392 1712890224417 25 328952.540000 3463475.820000 3.111486 4.620000
1712890224442 1712890224466 24 328952.360000 3463475.820000 3.111486 4.620000
1712890224493 1712890224517 24 328952.070000 3463475.830000 3.111486 4.660000
1712890224543 1712890224567 24 328951.980000 3463475.830000 3.118685 4.660000
1712890224593 1712890224616 23 328951.690000 3463475.830000 3.118685 4.660000
1712890224643 1712890224667 24 328951.560000 3463475.830000 3.118685 4.680000
1712890224693 1712890224717 24 328951.180000 3463475.840000 3.118685 4.700000
1712890224743 1712890224768 25 328950.940000 3463475.850000 3.115631 4.700000
1712890224793 1712890224818 25 328950.750000 3463475.860000 3.115631 4.700000
1712890224844 1712890224870 26 328950.750000 3463475.860000 3.115631 4.720000
1712890224894 1712890224918 24 328950.180000 3463475.870000 3.115631 4.740000
1712890224944 1712890224968 24 328949.940000 3463475.870000 3.123267 4.760000
1712890224994 1712890225018 24 328949.850000 3463475.870000 3.123267 4.760000
1712890225044 1712890225066 22 328949.470000 3463475.880000 3.123267 4.740000
1712890225094 1712890225118 24 328949.180000 3463475.880000 3.123267 4.740000
1712890225144 1712890225168 24 328949.040000 3463475.890000 3.129375 4.780000
1712890225195 1712890225218 23 328948.980000 3463475.890000 3.129375 4.780000
1712890225245 1712890225268 23 328948.600000 3463475.900000 3.129375 4.780000
1712890225295 1712890225325 30 328948.410000 3463475.910000 3.129375 4.780000
1712890225345 1712890225370 25 328948.020000 3463475.910000 3.136138 4.780000
1712890225395 1712890225420 25 328947.780000 3463475.920000 3.136138 4.780000
1712890225445 1712890225469 24 328947.490000 3463475.920000 3.136138 4.800000
1712890225496 1712890225519 23 328947.260000 3463475.930000 3.131121 4.780000
1712890225546 1712890225569 23 328947.010000 3463475.930000 3.131121 4.800000
1712890225596 1712890225620 24 328946.720000 3463475.930000 3.131121 4.800000
1712890225646 1712890225669 23 328946.530000 3463475.940000 3.131121 4.800000
1712890225696 1712890225726 30 328946.380000 3463475.940000 3.131121 4.800000
1712890225746 1712890225771 25 328946.100000 3463475.950000 3.136793 4.820000
1712890225796 1712890225821 25 328945.850000 3463475.950000 3.136793 4.800000
1712890225847 1712890225870 23 328945.610000 3463475.960000 3.136793 4.800000
1712890225897 1712890225927 30 328945.320000 3463475.970000 3.137447 4.800000
1712890225947 1712890225978 31 328945.080000 3463475.960000 3.137447 4.800000
1712890225997 1712890226017 20 328944.840000 3463475.980000 3.137447 4.820000
1712890226047 1712890226071 24 328944.540000 3463475.980000 3.137447 4.820000
1712890226097 1712890226122 25 328944.350000 3463475.980000 3.137447 4.820000
1712890226147 1712890226172 25 328944.150000 3463475.990000 3.133739 4.820000
1712890226198 1712890226222 24 328943.760000 3463475.990000 3.133739 4.840000
1712890226248 1712890226265 17 328943.570000 3463476.000000 3.133739 4.840000
1712890226298 1712890226320 22 328943.280000 3463475.990000 3.141156 4.820000
1712890226348 1712890226371 23 328943.280000 3463475.990000 3.141156 4.820000
1712890226398 1712890226421 23 328943.030000 3463475.990000 3.141156 4.840000
1712890226448 1712890226472 24 328942.890000 3463476.000000 3.141156 4.840000
1712890226498 1712890226521 23 328942.790000 3463476.000000 3.141156 4.860000
1712890226549 1712890226572 23 328942.400000 3463476.010000 3.137447 4.860000
1712890226599 1712890226622 23 328942.110000 3463476.010000 3.137447 4.840000
1712890226649 1712890226673 24 328941.910000 3463476.010000 3.137447 4.840000
1712890226699 1712890226723 24 328941.620000 3463476.020000 3.137447 4.880000
1712890226749 1712890226773 24 328941.330000 3463476.020000 3.133521 4.860000
1712890226799 1712890226831 32 328941.080000 3463476.030000 3.133521 4.860000
1712890226850 1712890226870 20 328940.830000 3463476.030000 3.133521 4.860000
1712890226900 1712890226923 23 328940.580000 3463476.030000 3.133521 4.880000
1712890226950 1712890226973 23 328940.300000 3463476.040000 -3.138975 4.880000
1712890227000 1712890227025 25 328940.100000 3463476.040000 -3.138975 4.880000
1712890227050 1712890227074 24 328939.850000 3463476.050000 -3.138975 4.880000
1712890227100 1712890227131 31 328939.560000 3463476.050000 -3.138975 4.880000
1712890227151 1712890227175 24 328939.410000 3463476.050000 -3.140284 4.880000
1712890227201 1712890227225 24 328939.160000 3463476.060000 -3.140284 4.880000
1712890227251 1712890227274 23 328938.860000 3463476.060000 -3.140284 4.880000
1712890227301 1712890227332 31 328938.620000 3463476.070000 -3.140284 4.880000
1712890227351 1712890227370 19 328938.420000 3463476.070000 -3.141156 4.880000
1712890227401 1712890227426 25 328938.130000 3463476.070000 -3.141156 4.900000
1712890227451 1712890227474 23 328937.830000 3463476.080000 -3.141156 4.900000
1712890227502 1712890227525 23 328937.680000 3463476.080000 -3.141156 4.900000
1712890227552 1712890227574 22 328937.540000 3463476.070000 -3.141156 4.920000
1712890227602 1712890227625 23 328937.540000 3463476.070000 -3.141156 4.920000
1712890227652 1712890227674 22 328936.940000 3463476.080000 -3.141374 4.920000
1712890227702 1712890227725 23 328936.640000 3463476.090000 -3.141374 4.920000
1712890227753 1712890227776 23 328936.400000 3463476.090000 3.139629 4.900000
1712890227803 1712890227826 23 328936.200000 3463476.100000 3.139629 4.900000
1712890227853 1712890227882 29 328936.000000 3463476.090000 3.139629 4.920000
1712890227903 1712890227919 16 328935.650000 3463476.090000 3.139629 4.920000
1712890227953 1712890227977 24 328935.360000 3463476.100000 -3.138975 4.920000
1712890228003 1712890228028 25 328935.100000 3463476.100000 -3.138975 4.920000
1712890228053 1712890228078 25 328934.850000 3463476.090000 -3.138975 4.940000
1712890228104 1712890228127 23 328934.560000 3463476.100000 -3.138975 4.940000
1712890228154 1712890228178 24 328934.360000 3463476.100000 -3.134611 4.940000
1712890228204 1712890228234 30 328934.060000 3463476.100000 -3.134611 4.940000
1712890228254 1712890228278 24 328933.910000 3463476.100000 -3.134611 4.940000
1712890228304 1712890228324 20 328933.760000 3463476.090000 -3.134611 4.940000
1712890228354 1712890228386 32 328933.460000 3463476.100000 -3.131121 4.940000
1712890228405 1712890228425 20 328933.110000 3463476.080000 -3.131121 4.940000
1712890228455 1712890228479 24 328932.860000 3463476.080000 -3.131121 4.940000
1712890228505 1712890228529 24 328932.770000 3463476.070000 -3.131121 4.960000
1712890228555 1712890228579 24 328932.320000 3463476.070000 -3.116067 4.940000
1712890228605 1712890228628 23 328932.070000 3463476.060000 -3.116067 4.940000
1712890228655 1712890228680 25 328932.070000 3463476.060000 -3.116067 4.900000
1712890228705 1712890228729 24 328931.580000 3463476.040000 -3.116067 4.920000
1712890228756 1712890228771 15 328931.330000 3463476.030000 -3.120649 4.920000
1712890228806 1712890228822 16 328931.080000 3463476.020000 -3.120649 4.920000
1712890228856 1712890228874 18 328930.790000 3463476.010000 -3.120649 4.920000
1712890228906 1712890228930 24 328930.590000 3463476.000000 -3.120649 4.940000
1712890228956 1712890228979 23 328930.490000 3463475.990000 -3.111268 4.940000
1712890229006 1712890229024 18 328930.140000 3463475.980000 -3.111268 4.920000
1712890229057 1712890229080 23 328929.840000 3463475.970000 -3.111268 4.920000
1712890229107 1712890229131 24 328929.590000 3463475.960000 -3.111268 4.960000
1712890229157 1712890229181 24 328929.350000 3463475.940000 -3.099050 4.940000
1712890229207 1712890229230 23 328929.150000 3463475.930000 -3.099050 4.940000
1712890229257 1712890229280 23 328928.800000 3463475.920000 -3.099050 4.980000
1712890229307 1712890229331 24 328928.600000 3463475.910000 -3.099050 4.980000
1712890229357 1712890229382 25 328928.300000 3463475.890000 -3.092069 4.960000
1712890229408 1712890229432 24 328928.050000 3463475.880000 -3.092069 4.960000
1712890229458 1712890229475 17 328927.750000 3463475.870000 -3.092069 4.960000
1712890229508 1712890229539 31 328927.550000 3463475.860000 -3.085960 4.960000
1712890229558 1712890229579 21 328927.260000 3463475.840000 -3.085960 4.940000
1712890229608 1712890229632 24 328927.010000 3463475.820000 -3.085960 4.960000
1712890229658 1712890229682 24 328926.910000 3463475.810000 -3.085960 4.940000
1712890229709 1712890229733 24 328926.610000 3463475.800000 -3.085960 4.960000
1712890229759 1712890229777 18 328926.350000 3463475.780000 -3.076361 4.960000
1712890229809 1712890229832 23 328926.060000 3463475.760000 -3.076361 4.960000
1712890229859 1712890229882 23 328925.810000 3463475.740000 -3.076361 4.980000
1712890229909 1712890229932 23 328925.560000 3463475.730000 -3.069161 4.980000
1712890229959 1712890229982 23 328925.310000 3463475.710000 -3.069161 5.000000
1712890230009 1712890230033 24 328925.010000 3463475.680000 -3.069161 4.980000
1712890230060 1712890230083 23 328924.810000 3463475.660000 -3.069161 4.980000
1712890230110 1712890230133 23 328924.670000 3463475.640000 -3.069161 4.980000
1712890230160 1712890230182 22 328924.270000 3463475.600000 -3.058471 4.980000
1712890230210 1712890230233 23 328923.970000 3463475.570000 -3.058471 4.980000
1712890230260 1712890230283 23 328923.710000 3463475.540000 -3.058471 4.980000
1712890230310 1712890230334 24 328923.570000 3463475.540000 -3.050181 4.980000
1712890230360 1712890230388 28 328923.370000 3463475.510000 -3.050181 4.980000
1712890230411 1712890230429 18 328923.120000 3463475.480000 -3.050181 4.980000
1712890230461 1712890230480 19 328922.870000 3463475.460000 -3.050181 4.980000
1712890230511 1712890230529 18 328922.570000 3463475.420000 -3.040582 5.000000
1712890230561 1712890230578 17 328922.320000 3463475.390000 -3.040582 4.980000
1712890230611 1712890230628 17 328922.020000 3463475.350000 -3.040582 5.000000
1712890230661 1712890230685 24 328921.980000 3463475.350000 -3.040582 5.000000
1712890230711 1712890230736 25 328921.480000 3463475.280000 -3.033819 4.980000
1712890230762 1712890230780 18 328921.280000 3463475.260000 -3.033819 5.000000
1712890230812 1712890230831 19 328920.980000 3463475.210000 -3.033819 5.000000
1712890230862 1712890230879 17 328920.830000 3463475.190000 -3.033819 5.020000
1712890230912 1712890230932 20 328920.580000 3463475.160000 -3.013093 5.000000
1712890230962 1712890230994 32 328920.330000 3463475.120000 -3.013093 5.020000
1712890231012 1712890231031 19 328920.090000 3463475.090000 -3.013093 5.000000
1712890231062 1712890231086 24 328919.790000 3463475.040000 -3.013093 5.000000
1712890231113 1712890231135 22 328919.640000 3463475.020000 -3.013093 5.000000
1712890231163 1712890231184 21 328919.280000 3463474.970000 -2.997821 5.000000
1712890231213 1712890231236 23 328919.040000 3463474.930000 -2.997821 5.000000
1712890231263 1712890231285 22 328918.740000 3463474.880000 -2.997821 5.000000
1712890231313 1712890231337 24 328918.490000 3463474.840000 -3.000003 5.000000
1712890231363 1712890231386 23 328918.210000 3463474.790000 -3.000003 4.980000
1712890231414 1712890231436 22 328918.010000 3463474.760000 -3.000003 4.980000
1712890231464 1712890231487 23 328917.800000 3463474.720000 -3.000003 5.000000
1712890231514 1712890231538 24 328917.800000 3463474.720000 -3.000003 5.000000
1712890231564 1712890231594 30 328917.800000 3463474.720000 -3.000003 5.000000
1712890231614 1712890231638 24 328917.360000 3463474.650000 -2.984949 5.000000
